Frequency,Nominal,Min,Max
50,137221.7813156217,134745.2484758663,140162.0565790073
51.16464961403771,135687.38228117127,133328.39900174644,138496.97274472614
52.35642740254497,134205.6670855832,131961.11809992619,136887.92435233959
53.57596526188031,132775.20521091204,130642.0174648736,135333.4376120291
54.82390980715924,131394.5880137942,129369.73112337358,133832.0603518109
56.10092271509816,130062.42879868548,128142.9155670555,132382.36200252036
57.40768107484412,128777.36291701836,126960.24990045467,130982.93361881995
58.74487774697646,127538.0478881695,125820.43600044637,129632.38793245023
60.11322173087062,126343.16353809209,124722.19868295774,128329.35943380375
61.51343854061905,125191.412151473,123664.28587296998,127072.50447779949
62.94627058970833,124081.51863331918,122645.46877396347,125860.5014099729
64.41247758465666,123012.2306759622,121664.54203313531,124692.050708675
65.91283692782031,121982.31892759119,120720.32389892283,123565.87513929215
67.44814412958263,120990.57715857933,119811.65636759855,122480.71991645599
69.01921323014419,120035.82242205697,118937.40531595662,121435.3528703087
70.62687723113766,119116.89520539949,118096.46061738238,120428.56461302064
72.27198853729631,118232.65956953792,117287.73623888368,119459.16870192211
73.95541940841031,117382.00327326059,116510.17031695927,118526.00179580621
75.67806242181034,116563.8378799505,115762.7252104807,117627.92380118168
77.440830945624,115777.09884449172,115044.38752906857,116763.81800549895
79.2446596230556,115020.74557837463,114354.16813574532,115932.59119463646
81.09050486794642,114293.76149132998,113691.10212294222,115133.17375221223
82.97934537187795,113595.15400812197,113054.2487612254,114364.51973857473
84.91218262308713,112923.95455942673,112442.6914203806,113625.60694762199
86.89004143746868,112279.21854601197,111855.53746275681,112915.43693989566
88.91397050194604,111660.02527571293,111291.91810901427,112233.03505069324
90.98504293049906,111065.47787296516,110750.98827664732,111577.45037223244
93.10435683314326,110494.7031609067,110231.92639186104,110947.75570918566
95.27303589816223,109946.85151629591,109733.93417556642,110343.0475071744
97.49222998790214,109421.09669770673,109256.23640442573,109762.4457540723
99.76311574844384,108916.63564766008,108798.0806480243,109205.09385420867
102.08689723347632,108432.6882695247,108358.73698337028,108670.15847579027
104.46480654270182,107968.49718017735,107937.49768802685,108156.8293720662
106.89810447511145,107523.3274395456,107523.3274395456,107664.31917694795
109.38808119747746,107096.46625827145,107096.46625827145,107191.86317596458
111.9360569284168,106687.22268482766,106687.22268482766,106775.65480990248
114.54338263838847,106294.92727349352,106294.92727349352,106420.18796050189
117.21144076599592,105918.93173465406,105887.50750487948,106079.60782039627
119.94164595097432,105558.60856892515,105488.06486084544,105753.3324115269
122.73544578425131,105213.35068663102,105105.18300894606,105440.79933281882
125.59432157547879,104882.5710141689,104738.22709680513,105141.46533577684
128.51978913844297,104565.7020887905,104386.58272938513,104854.80589222131
131.51339959476888,104262.1956433128,104049.6555877402,104580.31475560035
134.57674019634555,103971.52218224359,103726.87103529708,104317.50351726731
137.71143516690807,103693.17055076838,103417.67371317431,104065.90115905412
140.91914656322243,103426.64749800158,103121.52712602881,103825.05360341194
144.20157515633002,103171.47723585118,102837.91321988859,103594.52326232348
147.560461333319,102927.20099478895,102566.33195339033,103373.88858612455
150.99758602010053,102693.37657775554,102306.30086379295,103162.74361330147
154.51477162567923,102469.57791336357,102057.35462908517,102960.69752225939
158.11388300841867,102255.39460949351,101819.04462744526,102767.3741859852
161.7968284648138,102050.43150830708,101590.93849524841,102582.41173045647
165.56556074129523,101854.30824363123,101372.6196847511,102405.46209757695
169.42207806960096,101666.65880159524,101163.68702251268,102236.19061335
173.3684252262655,101487.13108533256,100963.75426954505,102074.27556193284
177.40669461678738,101315.3864844887,100772.44968411078,101919.407766149
181.5390273850503,101151.09945020938,100589.41558801911,101771.29017497318
185.7676145485859,100993.95707621572,100414.30793720052,101629.63745844144
190.09469816028022,100843.65868650994,100246.79589727067,101494.17561038228
194.5225724971399,100699.9154301929,100086.56142472893,101364.64155930886
199.0535852767482,100562.44988381634,99933.29885437076,101240.78278776062
203.69013890205593,100430.99566163633,99786.71449343083,101122.35696033423
208.43469173516726,100305.2970340812,99646.52622291414,101009.13156059745
213.28975940079587,100185.10855469796,99512.46310651413,100900.88353703724
218.2579161200825,100070.19469579321,99384.26500746304,100797.39895815376
223.34179607548106,99960.32949294141,99261.68221360774,100698.47267677546
228.544094807437,99855.29619849227,99144.47507095608,100603.9080036367
233.86757064359855,99754.8869441712,99032.41362589295,100513.51639022827
239.3150461613186,99658.90241283184,98925.27727622329,100427.11712090379
244.8894096842225,99567.15151938776,98822.85443115945,100344.53701419849
250.59361681363552,99479.45110092094,98724.94218033389,100265.61013329461
256.4306919956818,99395.62561593797,98631.34597188518,100190.17750554656
262.40373012488567,99315.50685272111,98541.87929963323,100118.08685096068
268.5158981851257,99238.93364669911,98456.36339933315,100049.19231950797
274.7704369288116,99165.7516067433,98374.62695396997,99983.354237134
281.17066259517384,99095.81285027783,98296.50580803478,99920.43886031704
287.71996866857774,99028.97574707623,98221.84269070094,99860.3181390156
294.4218276777937,98965.10467160477,98150.48694780131,99802.8694878362
301.2797930371781,98904.06976375969,98082.29428249043,99747.97556524521
308.2975009307403,98845.74669783667,98017.12650446128,99695.52406064165
315.4786722400958,98790.01645956191,97954.85128757356,99645.40748910309
322.82711451732695,98736.76513100676,97895.3419357394,99597.52299361226
330.3467240037972,98685.88368320261,97838.47715690297,99551.7721545693
338.04148769599004,98637.26777626788,97784.14084494261,99508.06080639239
345.9154854594674,98590.81756685511,97732.22186931735,99466.2988610082
353.97289219206806,98546.43752272429,97682.61387227458,99426.4001380335
362.2179800374941,98504.03624424599,97635.21507343114,99388.28220144895
370.6551206504578,98463.52629263808,97589.92808153713,99351.86620256766
379.28878751459087,98424.82402473858,97546.65971322951,99317.07672910178
388.1235583143448,98387.84943411865,97505.32081858099,99283.84166013308
397.1641173621396,98352.52599834037,97465.82611324952,99252.09202679526
406.41525808204847,98318.78053216572,97428.09401703329,99221.76187847876
415.88188555133434,98286.54304652516,97392.04649863733,99192.7881543716
425.56901910118705,98255.74661305707,97357.60892645892,99165.1105601537
435.4817949780391,98226.32723403168,97324.7099252007,99138.6714496649
445.6254690668715,98198.22371747662,97293.28123812265,99113.41571137146
456.00541967795357,98171.3775573246,97263.25759474713,99089.2906594593
466.62715039849417,98145.73281840718,97234.57658383311,99066.2459293863
477.49629301071656,98121.23602612266,97207.17853144022,99044.23337773066
488.61861047790387,98097.83606060986,97181.00638390552,99023.20698617582
499.99999999999847,98075.4840552639,97156.00559556043,99003.12276947749
511.64649614037546,98054.13329943399,97132.12402101858,98983.93868726224
523.5642740254481,98033.7391451477,97109.31181186961,98965.61455951167
535.7596526188015,98014.25891771053,97087.5213176178,98948.11198559032
548.2390980715908,97995.6518300335,97066.70699070876,98931.39426668028
561.0092271509799,97977.87890054638,97046.82529549158,98915.42633148914
574.0768107484395,97960.90287455815,97027.83462096803,98900.17466510288
587.4487774697628,97944.68814893052,97009.69519718476,98885.607240859
601.1322173087044,97929.2006999349,96992.36901512873,98871.69345511946
615.1343854061887,97914.40801416716,96975.81974999027,98858.40406482757
629.4627058970815,97900.27902239864,96960.01268766263,98845.7111277361
644.1247758465648,97886.78403624649,96944.91465435074,98833.5879451987
659.1283692782014,97873.89468754949,96930.49394916644,98822.00900742006
674.4814412958245,97861.58387034037,96916.72027959125,98810.9499410641
690.1921323014401,97849.8256853092,96903.56469969185,98800.38745912346
706.2687723113747,97838.59538665578,96890.99955097752,98790.29931295647
722.7198853729612,97827.86933123333,96878.99840579249,98780.6642464021
739.5541940841011,97817.62492988899,96867.5360131401,98771.46195188603
756.7806242181015,97807.84060091009,96856.58824683928,98762.67302843505
774.4083094562379,97798.4957254889,96846.13205591751,98754.27894151922
792.446596230554,97789.57060512155,96836.14541714797,98746.26198464519
810.9050486794621,97781.04642085996,96826.6072896421,98738.60524262681
829.7934537187773,97772.90519433944,96817.49757141189,98731.2925564618
849.121826230869,97765.12975050662,96808.79705781987,98724.30848974628
868.9004143746845,97757.70368197604,96800.48740183738,98717.63829656188
889.139705019458,97750.6113149464,96792.55107603529,98711.2678907724
909.8504293049882,97743.83767661008,96784.97133623422,98705.18381666964
931.0435683314302,97737.36846399216,96777.73218674351,98699.37322091061
952.7303589816199,97731.19001415804,96770.81834712211,98693.8238256907
974.9222998790189,97725.28927573093,96764.2152203962,98688.52390309928
997.6311574844359,97719.65378166284,96757.90886267161,98683.46225060683
1020.8689723347607,97714.27162320538,96751.8859540812,98678.62816763471
1044.6480654270156,97709.13142502833,96746.1337710101,98674.01143316069
1068.9810447511118,97704.22232143664,96740.6401595439,98669.60228431484
1093.8808119747719,97699.53393363804,96735.39351008683,98665.39139592332
1119.3605692841652,97695.05634801599,96730.38273309989,98661.36986095841
1145.4338263838818,97690.78009536404,96725.59723591019,98657.52917185533
1172.1144076599562,97686.69613103979,96721.02690054505,98653.8612026579
1199.4164595097402,97682.7958159986,96716.66206254669,98650.35819195706
1227.35445784251,97679.07089866836,96712.49349072456,98647.01272658711
1255.943215754785,97675.51349762858,96708.51236780462,98643.8177260468
1285.1978913844266,97672.11608505888,96704.71027193654,98640.76642761326
1315.1339959476854,97668.87147092284,96701.07915902114,98637.8523721183
1345.7674019634521,97665.77278785505,96697.61134582246,98635.06939035807
1377.1143516690772,97662.81347672055,96694.29949382976,98632.41159010795
1409.1914656322208,97659.9872728169,96691.13659383699,98629.87334371627
1442.0157515632966,97657.28819269086,96688.11595120784,98627.44927625109
1475.6046133331863,97654.71052154226,96685.2311717965,98625.13425417562
1509.9758602010013,97652.24880118946,96682.47614849513,98622.9233745291
1545.1477162567883,97649.89781857136,96679.84504838052,98620.8119545905
1581.1388300841825,97647.65259476253,96677.33230043357,98618.79552200393
1617.968284648134,97645.50837447833,96674.9325838061,98616.869805345
1655.6556074129478,97643.46061604886,96672.64081661105,98615.03072510895
1694.2207806960048,97641.50498184058,96670.45214521285,98613.27438510138
1733.68425226265,97639.63732910583,96668.36193399581,98611.59706421418
1774.066946167869,97637.85370124137,96666.36575558929,98609.99520856912
1815.3902738504983,97636.15031943785,96664.45938152962,98608.46542401309
1857.676145485854,97634.52357470243,96662.63877333925,98607.00446894908
1900.946981602797,97632.97002023862,96660.90007400453,98605.6092474881
1945.2257249713937,97631.48636416676,96659.23959983475,98604.27680290786
1990.5358527674766,97630.06946257055,96657.65383268501,98603.00431140415
2036.9013890205538,97628.71631285477,96656.13941252741,98601.78907612241
2084.346917351667,97627.42404740049,96654.69313035421,98600.6285214565
2132.8975940079526,97626.18992750443,96653.31192139901,98599.52018760308
2182.579161200819,97625.0113375898,96651.99285866141,98598.46172536006
2233.4179607548044,97623.88577967676,96650.73314672141,98597.4508911582
2285.440948074364,97622.81086810032,96649.53011583116,98596.48554231557
2338.6757064359795,97621.78432446542,96648.38121627129,98595.56363250472
2393.1504616131797,97620.80397282797,96647.28401296012,98594.6832074233
2448.8940968422185,97619.86773509196,96646.23618030462,98593.84240065877
2505.9361681363484,97618.97362661321,96645.23549728203,98593.03942973874
2564.306919956811,97618.11975200012,96644.27984274215,98592.27259235852
2624.037301248849,97617.30430110294,96643.36719092022,98591.54026277794
2685.1589818512493,97616.52554518287,96642.49560715108,98590.84088837999
2747.704369288108,97615.78183325329,96641.66324377559,98590.1729863838
2811.70662595173,97615.071588585,96640.86833623076,98589.5351407054
2877.199686685769,97614.3933053684,96640.10919931521,98588.92599895921
2944.2182767779286,97613.74554552558,96639.38422362233,98588.34426959437
3012.797930371772,97613.12693566551,96638.69187213354,98587.78871915958
3082.9750093073935,97612.5361641758,96638.03067696442,98587.25816969077
3154.7867224009483,97611.97197844538,96637.39923625691,98586.75149621624
3228.271145173259,97611.43318221158,96636.79621121116,98586.2676243737
3303.467240037961,97610.91863302664,96636.22032325053,98585.80552813449
3380.414876959889,97610.42723983781,96635.67035131404,98585.3642276301
3459.154854594662,97609.95796067637,96635.1451292703,98584.94278707613
3539.7289219206687,97609.5098004503,96634.6435434477,98584.54031278983
3622.1798003749286,97609.0818088362,96634.16453027548,98584.1559512965
3706.5512065045655,97608.673078266,96633.70707403083,98583.7888875211
3792.887875145896,97608.28274200406,96633.27020468719,98583.43834306116
3881.235583143435,97607.90997231069,96632.85299585926,98583.10357453726
3971.641173621383,97607.55397868826,96632.45456284023,98582.78387201771
4064.152580820471,97607.21400620612,96632.07406072746,98582.47855751394
4158.818855513329,97606.88933390084,96631.71068263217,98582.18698354374
4255.690191011856,97606.57927324824,96631.36365796963,98581.90853175888
4354.817949780376,97606.28316670435,96631.03225082636,98581.64261163457
4456.254690668699,97606.00038631169,96630.71575840058,98581.38865921777
4560.05419677952,97605.73033236843,96630.41350951273,98581.14613593183
4666.271503984925,97605.47243215732,96630.12486318318,98580.91452743486
4774.962930107149,97605.22613873164,96629.8492072736,98580.69334252941
4886.186104779022,97604.99092975596,96629.58595718957,98580.48211212132
4999.999999999967,97604.7663063989,96629.33455464155,98580.28038822512
5116.464961403737,97604.55179227571,96629.09446646152,98580.08774301449
5235.642740254463,97604.34693243835,96628.86518347274,98579.90376791518
5357.5965261879965,97604.15129241113,96628.64621941047,98579.72807273881
5482.390980715889,97603.96445726953,96628.43710989121,98579.56028485567
5610.09227150978,97603.78603076062,96628.23741142821,98579.40004840464
5740.768107484376,97603.61563446299,96628.04670049137,98579.24702353877
5874.487774697609,97603.45290698436,96627.8645726092,98579.10088570465
6011.322173087025,97603.29750319547,96627.69064151161,98578.96132495427
