Frequency,Nominal,Min,Max
50,-2.0208180020784097,-2.409543774988636,-1.6266229969553347
51.16464961403771,-2.0732200679883976,-2.473793328255747,-1.666405297608762
52.35642740254497,-2.1254858605321854,-2.5381895573277875,-1.7057252989636806
53.57596526188031,-2.1774878944167972,-2.602614678830287,-1.7444446570988301
54.82390980715924,-2.2290897945348833,-2.666942998501776,-1.7824151351882722
56.10092271509816,-2.280145963877895,-2.7310406535632747,-1.8194781913708766
57.40768107484412,-2.3305012410908192,-2.794765345795077,-1.8554645554409877
58.74487774697646,-2.3799905466685787,-2.8579660639460758,-1.8901937940966795
60.11322173087062,-2.428438516862162,-2.9204827940844535,-1.9234738647354872
61.51343854061905,-2.475659124499568,-2.9821462165209973,-1.9551006581638763
62.94627058970833,-2.5214552861513613,-3.0427773880078783,-1.9848575311223664
64.41247758465666,-2.565618455407317,-3.102187408048782,-2.0125148302680738
65.91283692782031,-2.607928202510798,-3.1601770683666874,-2.037829410260288
67.44814412958263,-2.64815178125911,-3.2165364848828832,-2.0605441499350037
69.01921323014419,-2.686043684972683,-3.271044711991165,-2.0803874723289804
70.62687723113766,-2.721345194526004,-3.323469339495799,-2.0970728766438946
72.27198853729631,-2.7537839230025307,-3.3735660733634005,-2.1102984932858453
73.95541940841031,-2.7830733635886524,-3.421078302470648,-2.1197466770788784
75.67806242181034,-2.8089124499965084,-3.465736654879716,-2.1250836588970343
77.440830945624,-2.8309851421763716,-3.5072585489316808,-2.125959282628986
79.2446596230556,-2.848960054576417,-3.545347746728505,-2.122006863024361
81.09050486794642,-2.862490150023857,-3.5796939205249534,-2.1128432111422724
82.97934537187795,-2.8712125298205566,-3.6099722463651718,-2.098068888568014
84.91218262308713,-2.8747483603606443,-3.635843044221811,-2.077268770236996
86.89004143746868,-2.8727029891284723,-3.656951490250962,-2.0500130198282744
88.91397050194604,-2.8646663191471267,-3.6729274349781162,-2.0158586128315377
90.98504293049906,-2.8502135318855415,-3.683385371819753,-1.9743515825426794
93.10435683314326,-2.8289062756627574,-3.6879246140152153,-1.9250302159036212
95.27303589816223,-2.800294471452924,-3.686129755696512,-1.8674294923729322
97.49222998790214,-2.7639189329008125,-3.6775715156138333,-1.8010871436326725
99.76311574844384,-2.719315055059654,-3.661808091446171,-1.7255518192711956
102.08689723347632,-2.666017900237261,-3.6383871905447562,-1.6403939784072619
104.46480654270182,-2.603569103408328,-3.6068489517615148,-1.5452202942118158
106.89810447511145,-2.531526138502379,-3.5667300356575065,-1.4396925608486884
109.38808119747746,-2.44947463532539,-3.517569240461527,-1.3235523304289458
111.9360569284168,-2.3570446192159853,-3.45891510287922,-1.1966527735674248
114.54338263838847,-2.2539317639904386,-3.390336070950946,-1.0589995289504754
117.21144076599592,-2.1399250005254773,-3.311433995373147,-0.9108025368600737
119.94164595097432,-2.014942095522454,-3.221861879858525,-0.7525409467520318
122.73544578425131,-1.879075075715047,-3.1213470611810026,-0.5850429875770933
125.59432157547879,-1.7326475571003865,-3.0097212500921784,-0.40958192546486183
128.51978913844297,-1.5762860273109693,-2.8869591372647956,-0.2279875016615923
131.51339959476888,-1.4110067183966877,-2.753227512842946,-0.042768985094861246
134.57674019634555,-1.2383185735182993,-2.6089469838385537,0.14275947200145006
137.71143516690807,-1.060340480899894,-2.4548682568894384,0.32436867298331923
140.91914656322243,-0.8799268052798843,-2.292164345495455,0.49684778562015486
144.20157515633002,-0.7007886398135048,-2.122538590045007,0.6702148839151718
147.560461333319,-0.5275887622586322,-1.9483455210606122,0.8519562682139682
150.99758602010053,-0.3659765806671942,-1.7727167038732292,1.0262353253181302
154.51477162567923,-0.22251793782903506,-1.599676170613551,1.2236268273123374
158.11388300841867,-0.10446909841035924,-1.5214890779004073,1.3948036448873506
161.7968284648138,-0.019353267662161562,-1.4978674609722367,1.5310528064818505
165.56556074129523,0.025669361322565278,-1.5135307898084904,1.6240746125411154
169.42207806960096,0.024588262937845405,-1.6208352978493399,1.6669941234975467
173.3684252262655,-0.026635781229778017,-1.8831076481085318,1.6609859732115977
177.40669461678738,-0.1293896007242185,-2.1929875736626654,1.7152699803161058
181.5390273850503,-0.28204130852809056,-2.5428021484797805,1.7203048204256997
185.7676145485859,-0.47999015658663596,-2.9235887286385194,1.7197490939408584
190.09469816028022,-0.716114357838934,-3.3258809238279827,1.7107758274012776
194.5225724971399,-0.9814875584259436,-3.740351533708603,1.6617670923841341
199.0535852767482,-1.2661817051726216,-4.158251362903349,1.5791084507605138
203.69013890205593,-1.5599916050898668,-4.57164506017077,1.4716007147235395
208.43469173516726,-1.8529794760873652,-4.9734820049230795,1.3497082292891487
213.28975940079587,-2.135808532536519,-5.3575524443829545,1.2247800311048413
218.2579161200825,-2.399886641343797,-5.718375179670286,1.1083888408191467
223.34179607548106,-2.637366635331012,-6.051052173552087,1.0118616146086952
228.544094807437,-2.8410544163649742,-6.351113661109381,0.9460057925853975
233.86757064359855,-3.004269246135381,-6.614367698974583,0.9209865817165104
239.3150461613186,-3.12069099209287,-6.836761489189205,0.9462829758948355
244.8894096842225,-3.184222024223962,-7.01425815577876,1.030632460259378
250.59361681363552,-3.1888902789450086,-7.1427316047250535,1.18185059613151
256.4306919956818,-3.1288275888448207,-7.217883574454488,1.4063643390352718
262.40373012488567,-2.998377943468057,-7.23519147164308,1.708208241937157
268.5158981851257,-2.792431331398425,-7.189904519444788,2.0870874926386502
274.7704369288116,-2.5071523585636135,-7.0771220967054,2.534940775813564
281.17066259517384,-2.141394112337918,-6.89201741696624,3.030441392542995
287.71996866857774,-1.6992586963458225,-6.630321274129339,3.5317434513748793
294.4218276777937,-1.1944085829538815,-6.289268546913728,3.970962969793668
301.2797930371781,-0.6564915726743482,-5.869348848624983,4.260016723305588
308.2975009307403,-0.1384104251743284,-5.377380163250976,4.548964488697924
315.4786722400958,0.28138677598960715,-4.831504858352,4.724798971923664
322.82711451732695,0.5134357355725214,-4.427368736018569,5.26671479588305
330.3467240037972,0.49567465034718705,-5.3477765557051224,5.581371371346603
338.04148769599004,0.2346813620335876,-6.32481084205282,5.9777576191864155
345.9154854594674,-0.19050255926293905,-7.2765708773626,6.477488781040503
353.97289219206806,-0.6655835559494503,-8.146171401582464,7.095537646210078
362.2179800374941,-1.080451985560495,-8.895370085637722,7.623917801229946
370.6551206504578,-1.3454348917271843,-9.496503792574607,8.180187434151678
379.28878751459087,-1.3894706954927258,-9.92604600795752,8.877394424941999
388.1235583143448,-1.1541325945705276,-10.160037941462072,9.715059991636839
397.1641173621396,-0.5959982814078177,-10.170969256043065,10.397663742302335
406.41525808204847,0.28230609822919767,-9.926220778620568,10.320369170910872
415.88188555133434,1.3271216648991904,-9.390133794698524,10.732343247971967
425.56901910118705,2.05696014883414,-8.53772560959957,11.778133965868026
435.4817949780391,1.8931916666468478,-10.456959308477252,13.576162656983193
445.6254690668715,1.1088745977512064,-12.515325180777241,17.284686174035325
456.00541967795357,0.7411313747384605,-14.127858074030444,17.588664421679347
466.62715039849417,1.8904593929513185,-15.203421345472227,14.918756103694676
477.49629301071656,3.385697023512747,-15.58101478645175,12.393335892342366
488.61861047790387,-4.219318591262734,-20.854953018059327,7.459438576453259
499.99999999999847,-11.975457818586982,-25.61665187580366,5.009418042302941
511.64649614037546,-18.05773678143666,-29.864374684262668,2.2769412615022864
523.5642740254481,-23.15606231895138,-33.74598635619015,-6.039192706169906
535.7596526188015,-27.63443318108476,-37.35194829943908,-13.437882054409823
548.2390980715908,-31.685293436931165,-40.74189506274245,-19.301876173100204
561.0092271509799,-35.42157913268443,-43.95742627560064,-24.264087522418926
574.0768107484395,-38.915442281466916,-47.02885344453055,-28.648794782463533
587.4487774697628,-42.21603265524288,-49.97903491509777,-32.6304686980785
601.1322173087044,-45.35850939653314,-52.82569200679325,-36.31307259390996
615.1343854061887,-48.36900117036058,-55.5828789422231,-39.76378833812593
629.4627058970815,-51.26752511731496,-58.261954811662626,-43.028773835357654
644.1247758465648,-54.06980051747826,-60.87224876619651,-46.141266585895394
659.1283692782014,-56.78842717643383,-63.42152875356416,-49.12609643320752
674.4814412958245,-59.43368008327843,-65.9163402011911,-52.00236610921443
690.1921323014401,-62.014062389848846,-68.36225610518683,-54.78512938503056
706.2687723113747,-64.53670066610492,-70.7640652434423,-57.48648820201066
722.7198853729612,-67.00763402809557,-73.1259162161043,-60.11633638458285
739.5541940841011,-69.4320299378699,-75.45142933435487,-62.682879451571054
756.7806242181015,-71.8143481490377,-77.74378469947953,-65.19300757247746
774.4083094562379,-74.15846722559735,-80.0057923748233,-67.65256928282717
792.446596230554,-76.46778355233243,-82.23994890079476,-70.06657637179967
810.9050486794621,-78.74528979582357,-84.44848326193396,-72.43935993704972
829.7934537187773,-80.99363778900906,-86.63339461313416,-74.77469109028908
849.121826230869,-83.21518945207058,-88.79648349954464,-77.07587561326432
868.9004143746845,-85.4120584138024,-90.93937788991049,-79.3458291081833
889.139705019458,-87.58614432498806,-93.06355503861981,-81.58713733128434
909.8504293049882,-89.73916137111672,-95.17035996545182,-83.8021051239518
931.0435683314302,-91.87266213838207,-97.26102117195411,-85.99279646472355
952.7303589816199,-93.98805772569563,-99.33666408421684,-88.16106753220318
974.9222998790189,-96.08663480009452,-101.39832261275787,-90.30859421199534
997.6311574844359,-98.16957014524269,-103.44694914358207,-92.43689514664493
1020.8689723347607,-100.23794313995401,-105.48342321465745,-94.54735118011955
1044.6480654270156,-102.29274651674683,-107.50855908499796,-96.64122186300588
1068.9810447511118,-104.33489568286262,-109.52311236625701,-98.71965954422834
1093.8808119747719,-106.36523683321235,-111.5277858569836,-100.78372146775854
1119.3605692841652,-108.3845540428795,-113.52323469579879,-102.8343802099347
1145.4338263838818,-110.39357549353187,-115.51007093043908,-104.87253272851164
1172.1144076599562,-112.39297896144461,-117.48886758391981,-106.89900824394479
1199.4164595097402,-114.38339667336221,-119.46016228624343,-108.91457513338587
1227.35445784251,-116.3654196190181,-121.42446052954207,-110.91994698599697
1255.943215754785,-118.33960139493686,-123.38223859584376,-112.91578794263701
1285.1978913844266,-120.3064616425132,-125.3339461994388,-114.90271742236443
1315.1339959476854,-122.26648913378025,-127.28000887981278,-116.88131432147541
1345.7674019634521,-124.22014455035148,-129.2208301760866,-118.85212075714898
1377.1143516690772,-126.16786299442836,-131.15679360968204,-120.81564541657696
1409.1914656322208,-128.11005626526335,-133.08826449837247,-122.77236656322685
1442.0157515632966,-130.04711492985533,-135.01559162186865,-124.72273474424378
1475.6046133331863,-131.9794102127727,-136.93910875653106,-126.66717523663601
1509.9758602010013,-133.9072957267229,-138.85913609462352,-128.60609026457746
1545.1477162567883,-135.83110906270778,-140.7759815616595,-130.53986101570146
1581.1388300841825,-137.75117325624464,-142.68994204379428,-132.46884948050766
1617.968284648134,-139.66779814411666,-144.60130453583932,-134.39340013583154
1655.6556074129478,-141.5812816243941,-146.51034721928409,-136.3138414906356
1694.2207806960048,-143.49191083098742,-148.41734047867442,-138.2304875100926
1733.68425226265,-145.3999632327198,-150.32254786378994,-140.14363893197668
1774.066946167869,-147.3057076658065,-152.22622700426516,-142.05358448770562
1815.3902738504983,-149.20940530767194,-154.12863048258538,-143.96060203894
1857.676145485854,-151.11131059920638,-156.03000667074832,-145.86495963940732
1900.946981602797,-153.01167212183205,-157.93060053529314,-147.76691653054772
1945.2257249713937,-154.91073343510928,-159.8306544148468,-149.66672407865136
1990.5358527674766,-156.80873388003755,-161.7304087738094,-151.56462666034682
2036.9013890205538,-158.7059093526943,-163.63010293527515,-153.4608625025935
2084.346917351667,-160.60249305238077,-165.52997579575205,-155.35566448270708
2132.8975940079526,-162.4987162080053,-167.43026652367286,-157.2492608933949
2182.579161200819,-164.39480878601552,-169.33121524307452,-159.14187617728285
2233.4179607548044,-166.291000182776,-171.2330637031205,-161.03373163496565
2285.440948074364,-168.18751990386974,-173.1360559333332,-162.92504611019893
2338.6757064359795,-170.08459823235995,-175.04043888344495,-164.816036655462
2393.1504616131797,-171.9824668875697,-176.9464630456265,-166.70691918074237
2448.8940968422185,-173.8813596753988,-178.8543830554475,-168.59790908802256
2505.9361681363484,-175.78151313057708,-180.7644582661993,-170.48922189356398
2564.306919956811,-177.68316715052487,-182.67695328907323,-172.38107383967923
2624.037301248849,-179.58656561961357,-184.59213848902652,-174.27368249724083
2685.1589818512493,-181.4919570215585,-186.5102904228454,-176.16726735967455
2747.704369288108,-183.3995950363697,-188.4316922017489,-178.06205042861012
2811.70662595173,-185.3097391166752,-190.3566337556519,-179.95825679068645
2877.199686685769,-187.2226550362308,-192.28541196963832,-181.85611518419293
2944.2182767779286,-189.13861540093575,-194.21833065493593,-183.75585855325082
3012.797930371772,-191.05790010955954,-196.15570030629635,-185.65772458603425
3082.9750093073935,-192.9807967474898,-198.09783758461876,-187.56195623205446
3154.7867224009483,-194.9076008919298,-200.04879742555306,-189.46880219170419
3228.271145173259,-196.8386163008621,-202.01542263652493,-191.37851736899427
3303.467240037961,-198.77415495043306,-203.9886050492301,-193.29136327559922
3380.414876959889,-200.7145368758159,-205.96873181169443,-195.20760837082238
3459.154854594662,-202.66008975859958,-207.95619120687618,-197.1275283177244
3539.7289219206687,-204.61114818873318,-209.95136850322777,-199.0514061302107
3622.1798003749286,-206.56805251032677,-211.95464039974274,-200.97953217908332
3706.5512065045655,-208.53114713730835,-213.96636769661683,-202.91220401659632
3792.887875145896,-210.5007781960701,-215.9868857373793,-204.84972596850892
3881.235583143435,-212.47729031666805,-218.0164920696684,-206.792408429516
3971.641173621383,-214.46102235064734,-220.05543066210194,-208.74056678165246
4064.152580820471,-216.4523017409266,-222.10387190044418,-210.69451983511038
4158.818855513329,-218.45143720639047,-224.16188748105682,-212.6545876660546
4255.690191011856,-220.45870933046496,-226.22941924851074,-214.62108869553614
4354.817949780376,-222.4743585597418,-228.30624103010396,-216.5943358164824
4456.254690668699,-224.4985700286337,-230.39191267201358,-218.5746313309955
4560.05419677952,-226.53145453587499,-232.48572588522492,-220.56226040698039
4666.271503984925,-228.5730249215152,-234.58664231459719,-222.5574827010671
4774.962930107149,-230.62316705189087,-236.69322564853576,-224.5605217244289
4886.186104779022,-232.68160465283364,-238.80357181532443,-226.57155145165098
4999.999999999967,-234.74785739731215,-240.91524455957642,-228.59067959544234
5116.464961403737,-236.82119204035243,-243.0252279906922,-230.6179269016327
5235.642740254463,-238.9005671226934,-245.12991268538798,-232.65320177700445
5357.5965261879965,-240.98457298872302,-247.22513653844038,-234.69626957578248
5482.390980715889,-243.07137075163766,-249.3063037062911,-236.74671598387158
5610.09227150978,-245.15863652116107,-251.36860156856494,-238.8039042196435
5740.768107484376,-247.24352067885388,-253.40732322953298,-240.8669263090346
5874.487774697609,-249.322635923462,-255.41827978814612,-242.93454961066075
6011.322173087025,-251.39209135228248,-257.39825461600924,-245.00516120028433
