Frequency,Nominal,Min,Max
50,0.7924266994135547,0.7577445322351175,0.8292182469001478
51.16464961403771,0.7876603726924676,0.7521601727462198,0.8254290230646268
52.35642740254497,0.7829349981163919,0.7466043606098067,0.8217008477796881
53.57596526188031,0.7782616048582508,0.7410871212099382,0.81804607860787
54.82390980715924,0.773651746481565,0.7356188511988264,0.8144777847742998
56.10092271509816,0.7691175153793103,0.7302103213753374,0.811009778158463
57.40768107484412,0.7646715598714477,0.7248726815659198,0.8076566480574076
58.74487774697646,0.7603271044455376,0.7196174678899913,0.8044338003318241
60.11322173087062,0.7560979736614776,0.7144566128132899,0.8013575015985732
61.51343854061905,0.7519986202782352,0.7094024584144406,0.7984449291844798
62.94627058970833,0.7480441581972042,0.7044677733121101,0.7957142276049878
64.41247758465666,0.7442504008529246,0.6996657737227366,0.7931845723753405
65.91283692782031,0.7406339057163606,0.6950101491418724,0.7908762419978604
67.44814412958263,0.737212025607344,0.6905150931654993,0.7888106989920344
69.01921323014419,0.7340029675387685,0.6861953399907221,0.7870106808374054
70.62687723113766,0.7310258598324219,0.6820662071572241,0.785500301673173
72.27198853729631,0.7283008282499254,0.6781436451102422,0.784305165529065
73.95541940841031,0.7258490818651478,0.6744442941803284,0.783452491730214
75.67806242181034,0.7236930093564119,0.6709855495814645,0.7829712528974668
77.440830945624,0.7218562863036939,0.6677856350220783,0.7828923256161913
79.2446596230556,0.7203639939175904,0.6648636854960704,0.7832486533189296
81.09050486794642,0.7192427493751996,0.6622398397628437,0.784075420147774
82.97934537187795,0.7185208475540282,0.6599353429220921,0.785410233430991
84.91218262308713,0.7182284133845415,0.6579726593206204,0.7872933107868947
86.89004143746868,0.7183975632098778,0.6563755957665234,0.7897676655663904
88.91397050194604,0.7190625723441175,0.6551694346316921,0.7928792811033294
90.98504293049906,0.7202600443157064,0.6543810758425694,0.7966772597031319
93.10435683314326,0.7220290748744448,0.6540391859168457,0.8012139259827992
95.27303589816223,0.7244114004613489,0.6541743509971575,0.8065448554296287
97.49222998790214,0.7274515161264404,0.6548192291205174,0.8127287870081171
99.76311574844384,0.731196741338025,0.6560086945501563,0.8198273621832098
102.08689723347632,0.7356972030996572,0.6577799636202883,0.8279046103987528
104.46480654270182,0.7410056934076792,0.6601726868449944,0.837026071073162
106.89810447511145,0.7471773412162612,0.6632289855367814,0.8472574024892624
109.38808119747746,0.754269016311222,0.6669934022243486,0.8586622764301486
111.9360569284168,0.762338352126405,0.6715127219081021,0.8712992923736258
114.54338263838847,0.7714422346801569,0.6768356045619288,0.8852175664042368
117.21144076599592,0.7816345536871725,0.6830119469371915,0.9004505613536867
119.94164595097432,0.7929629485174999,0.6900918620735319,0.9170076372046159
122.73544578425131,0.8054642071680915,0.6981241262984108,0.9348627395430301
125.59432157547879,0.8191578965590902,0.7071538944902432,0.9539396573416702
128.51978913844297,0.8340377320012518,0.7172194246021115,0.9740934541376746
131.51339959476888,0.8500601631766662,0.7283474840303572,0.9950881414489583
134.57674019634555,0.8671297196776453,0.7405470407231124,1.0165716022602318
137.71143516690807,0.8850809145877078,0.753800788075854,1.038050384506104
140.91914656322243,0.9036570886761812,0.7680540485216274,1.0588693789380428
144.20157515633002,0.9224876656105543,0.7832007063908958,1.0802163444825532
147.560461333319,0.9410670377564209,0.7990661324319852,1.1030566403743483
150.99758602010053,0.9587407148860171,0.8153877167234397,1.1254125821346506
154.51477162567923,0.974707040586199,0.8317947816938631,1.151281010499701
158.11388300841867,0.9880445912249874,0.8393160848325452,1.174194879760146
161.7968284648138,0.9977743531520271,0.8416017443465018,1.1927588299913625
165.56556074129523,1.0029596656239919,0.8400854453022698,1.2056013639047487
169.42207806960096,1.0028348389633648,0.82977096691125,1.2115733339137285
173.3684252262655,0.9969381394453618,0.805090343466556,1.210735561623869
177.40669461678738,0.9852138760928854,0.7768740614620122,1.2183259622235278
181.5390273850503,0.9680503238279746,0.7462079859638869,1.219032378589814
185.7676145485859,0.9462382337037095,0.7142011802817285,1.2189543869348836
190.09469816028022,0.9208614279838526,0.6818768619173406,1.2176957530967463
194.5225724971399,0.8931525080024006,0.6501033789477195,1.21084444756708
199.0535852767482,0.86435254434393,0.619565793065128,1.1993761887818417
203.69013890205593,0.8356038258417435,0.5907690665362947,1.1846226599176228
208.43469173516726,0.8078877559912674,0.5640607749756082,1.1681144906660446
213.28975940079587,0.7820050783334215,0.539662670074251,1.151433873340691
218.2579161200825,0.7585874752120376,0.5177036667948449,1.1361075397661136
223.34179607548106,0.7381279798659893,0.4982500963125914,1.1235517505627541
228.544094807437,0.7210199462519477,0.4813315361335233,1.11506527053442
233.86757064359855,0.7075979038243736,0.4669620802762209,1.1118580098541735
239.3150461613186,0.6981768595216189,0.45515773286515054,1.1151008549623236
244.8894096842225,0.6930888285449073,0.44595094874826985,1.1259824539601546
250.59361681363552,0.69271642617528,0.439403406776651,1.1457570278605196
256.4306919956818,0.6975231413800814,0.4356180045250914,1.1757587432340528
262.40373012488567,0.708078002885786,0.434750836620486,1.2173358503139233
268.5158981851257,0.7250674906964175,0.437023483070802,1.2716112885032351
274.7704369288116,0.7492769663304436,0.4427350398456156,1.3388966002417972
281.17066259517384,0.7815023609587368,0.45227140389740256,1.4174967428202354
287.71996866857774,0.8223128278468169,0.4661051873605759,1.501713802888916
294.4218276777937,0.871524440792743,0.4847709342650973,1.579603722368995
301.2797930371781,0.9272042665306175,0.5087829599296868,1.6330550920803872
308.2975009307403,0.9841912027323736,0.5384321598554284,1.6882945729865135
315.4786722400958,1.0329263080475661,0.5733565220764403,1.722820173777806
322.82711451732695,1.0608934957098273,0.6006639437575855,1.833731476335024
330.3467240037972,1.0587263753786484,0.5402703973636974,1.9013784552893147
338.04148769599004,1.0273870047462386,0.4827913249889083,1.9901594858603966
345.9154854594674,0.9783063490525489,0.4326846178900197,2.108018602515712
353.97289219206806,0.9262342202321611,0.391463639888278,2.2634811511289827
362.2179800374941,0.8830339489967045,0.35911330488616294,2.4054475409681597
370.6551206504578,0.8565017515046425,0.3351002951634772,2.5645393765112234
379.28878751459087,0.852170439728589,0.3189317086716411,2.7788795402268787
388.1235583143448,0.8755750352080701,0.31045460269069375,3.0602224693216424
397.1641173621396,0.9336843639997569,0.3100641369506383,3.3104206858947194
406.41525808204847,1.0330356396671267,0.3189252914423485,3.281092382376034
415.88188555133434,1.1650809016806924,0.339229264120838,3.440465144895546
425.56901910118705,1.2672082960071582,0.37420856153397414,3.880669866174014
435.4817949780391,1.2435394957151722,0.3000212627250753,4.773183523840512
445.6254690668715,1.1361710781678167,0.23671933981929427,7.315336509433786
456.00541967795357,1.0890719404314575,0.19661067594689918,7.575882340087309
466.62715039849417,1.2431483836869879,0.1737116449092449,5.5710596071241145
477.49629301071656,1.4766747579329242,0.16632183225477976,4.165496698742389
488.61861047790387,0.6152251352778432,0.0906259034527017,2.360325665592349
499.99999999999847,0.2518993860903973,0.05238023062024011,1.780208630246116
511.64649614037546,0.12505848434897515,0.03212042372742515,1.2997118035553414
523.5642740254481,0.0695339472931714,0.020544741546338605,0.4989308575041037
535.7596526188015,0.04152200734617627,0.013564462367883426,0.21286580293525792
548.2390980715908,0.026045657671483757,0.00918132259140088,0.1083692808479429
561.0092271509799,0.01694029790432359,0.006340575616367358,0.06120622914605102
574.0768107484395,0.011329947199076144,0.004452022266599911,0.03694539046727417
587.4487774697628,0.00774815619793661,0.003169919651682245,0.023360200451662608
601.1322173087044,0.005396032169926875,0.0022841015034244508,0.015287848500749192
615.1343854061887,0.0038154866775960347,0.0016628614028222093,0.010275680280772864
629.4627058970815,0.0027329000219787876,0.0012215247177485844,0.00705604445380304
644.1247758465648,0.001979292477689049,0.0009044562448084904,0.0049310189405635824
659.1283692782014,0.0014473669156807316,0.0006744093183396295,0.0034969963445749346
674.4814412958245,0.0010673724667590121,0.0005060378360857236,0.00251120226576069
690.1921323014401,0.0007930432637598218,0.0003818450761018329,0.001822818932771797
706.2687723113747,0.0005931505899576971,0.00028959878657631126,0.0013355974767446355
722.7198853729612,0.00044629117443084675,0.00022065013078195278,0.0009866955755221552
739.5541940841011,0.00033759694124972173,0.00016882180265097004,0.0007342704104725165
756.7806242181015,0.0002566153272347116,0.00012966141746635138,0.0005499834504993096
774.4083094562379,0.00019591903757925085,0.00009993333505135173,0.00041435400015420285
792.446596230554,0.00015017955820078606,0.00007726851307993185,0.00031381318117081633
810.9050486794621,0.00011554083723397026,0.00005992055633048135,0.00023879872471392402
829.7934537187773,0.00008919039977452019,0.0000465940293963267,0.00018250108278575162
849.121826230869,0.00006906221885414803,0.00003632250774336778,0.0001400252057024899
868.9004143746845,0.000053628676518647874,0.000028381222961966267,0.00010782228830463419
889.139705019458,0.000041753490149042994,0.000022224001006845895,0.00008329964171396024
909.8504293049882,0.000032586816228830574,0.000017437410908837764,0.00006454977663641117
931.0435683314302,0.00002548982730329617,0.000013707206055028638,0.000050160305947460604
952.7303589816199,0.00001998007498131117,0.000010793611837081477,0.000039079286276170056
974.9222998790189,0.00001569163725668433,0.000008513024227398148,0.00003051899931012141
997.6311574844359,0.00001234586411930276,0.000006724384568200516,0.000023886649811993688
1020.8689723347607,0.00000972977602230018,0.000005318985902548945,0.00001873408304250802
1044.6480654270156,0.00000768002571468524,0.000004212811679098735,0.000014721054035944165
1068.9810447511118,0.000006070929867566901,0.0000033407531123860645,0.000011588227769683348
1093.8808119747719,0.000004805495316736301,0.000002652227093042418,0.000009137216737158696
1119.3605692841652,0.000003808660815923183,0.00000210784302589828,0.0000072157418830294155
1145.4338263838818,0.00000302218624986987,0.0000016768586421823131,0.0000057065465406501784
1172.1144076599562,0.0000024007727441831376,0.0000013352316580000568,0.0000045190754029340385
1199.4164595097402,0.000001909106544101268,0.0000010641231360744391,0.000003583201599747257
1227.35445784251,0.0000015195990698463523,8.48744501021843e-7,0.000002844478468563034
1255.943215754785,0.0000012106536905098844,6.774668830114267e-7,0.0000022605317064296285
1285.1978913844266,9.653324777234185e-7,5.411313436114615e-7,0.0000017983082177338071
1315.1339959476854,7.703277505415215e-7,4.325133888650016e-7,0.000001431971201504815
1345.7674019634521,6.151666350373946e-7,3.459063153665688e-7,0.0000011412846131882935
1377.1143516690772,4.915943131845454e-7,2.767963248609399e-7,9.103695628699249e-7
1409.1914656322208,3.930946985190947e-7,2.216086841762702e-7,7.26744362987729e-7
1442.0157515632966,3.1451709340977503e-7,1.7750901696572123e-7,5.805815931691796e-7
1475.6046133331863,2.517847888267319e-7,1.4224747372019078e-7,4.6413170705944457e-7
1509.9758602010013,2.0166717454641534e-7,1.1403632033369247e-7,3.712748119330224e-7
1545.1477162567883,1.6160118715471574e-7,9.145362444889855e-8,2.9717135822182274e-7
1581.1388300841825,1.2955116930088537e-7,7.336736098060018e-8,2.379893517089689e-7
1617.968284648134,1.0389869501837739e-7,5.887552234273204e-8,1.9069091085629924e-7
1655.6556074129478,8.335581819838519e-8,4.7258794477162075e-8,1.528649524197217e-7
1694.2207806960048,6.689666361823957e-8,3.794311447213267e-8,1.2259580917972164e-7
1733.68425226265,5.37034069625052e-8,3.047001070552847e-8,9.835989430859185e-8
1774.066946167869,4.312356104555217e-8,2.447308112245453e-8,7.894429953079344e-8
1815.3902738504983,3.4636159795745335e-8,1.9659319276184397e-8,6.338257778154472e-8
1857.676145485854,2.782495496133713e-8,1.5794273947405627e-8,5.090401263549665e-8
1900.946981602797,2.235714759530067e-8,1.269024402104566e-8,4.0893489722896e-8
1945.2257249713937,1.7966493649878176e-8,1.0196879315230704e-8,3.285971527917534e-8
1990.5358527674766,1.4439870752607442e-8,8.193690612703407e-9,2.641001616216546e-8
2036.9013890205538,1.1606587033548356e-8,6.584076271995419e-9,2.1230336358199576e-8
2084.346917351667,9.3298647354109e-9,5.290554714825107e-9,1.7069341838498232e-8
2132.8975940079526,7.500050533992738e-9,4.250956626835942e-9,1.372577752512388e-8
2182.579161200819,6.02919819834193e-9,3.4153816272874145e-9,1.1038401614817748e-8
2233.4179607548044,4.846742990212196e-9,2.743764387109822e-9,8.877964789396152e-9
2285.440948074364,3.89604536237243e-9,2.203926989437799e-9,7.1408135648048176e-9
2338.6757064359795,3.1316274298330764e-9,1.7700195199382479e-9,5.743784895473388e-9
2393.1504616131797,2.5169619815312702e-9,1.4212708463653019e-9,4.62012835289382e-9
2448.8940968422185,2.022702523247076e-9,1.1409873966525918e-9,3.716246777321174e-9
2505.9361681363484,1.6252656007257347e-9,9.1575033601152e-10,2.9890894060062307e-9
2564.306919956811,1.3056947036687035e-9,7.347715555153156e-10,2.4040655661378138e-9
2624.037301248849,1.0487493846578353e-9,5.893768530595488e-10,1.933374005479963e-9
2685.1589818512493,8.421746193319348e-10,4.725910350019944e-10,1.5546643218769085e-9
2747.704369288108,6.761144972521551e-10,3.7880472709255646e-10,1.2499639235063797e-9
2811.70662595173,5.42641549487468e-10,3.0350672063103896e-10,1.0048174312639975e-9
2877.199686685769,4.353787700951091e-10,2.4306890330757384e-10,8.075961516686393e-10
2944.2182767779286,3.4919597562472196e-10,1.945733997188303e-10,6.489437772761196e-10
3012.797930371772,2.799658079861994e-10,1.5567360572112652e-10,5.213312646563097e-10
3082.9750093073935,2.2436761043019311e-10,1.244824481303492e-10,4.186992552451283e-10
3154.7867224009483,1.7972974386966903e-10,9.943977402811535e-11,3.361707247269451e-10
3228.271145173259,1.4390278032426068e-10,7.929190795892064e-11,2.698199960229773e-10
3303.467240037961,1.1515750648096525e-10,6.317856356875376e-11,2.164870069998139e-10
3380.414876959889,9.210286848023492e-11,5.0299470051953606e-11,1.7362792754536915e-10
3459.154854594662,7.361994896871991e-11,4.001201653964323e-11,1.391949835827704e-10
3539.7289219206687,5.880883695365634e-11,3.180032619592316e-11,1.1153975686769366e-10
3622.1798003749286,4.69458681273392e-11,2.525038358675138e-11,8.933535983493083e-11
3706.5512065045655,3.744920849510963e-11,2.0030030710724325e-11,7.151379071035567e-11
3792.887875145896,2.985115161115741e-11,1.5872879274921817e-11,5.721550053094873e-11
3881.235583143435,2.3775818904765653e-11,1.256537333191748e-11,4.574878647447094e-11
3971.641173621383,1.892120898238342e-11,9.936386289285306e-12,3.6557093617997037e-11
4064.152580820471,1.5044747835895287e-11,7.848856789023709e-12,2.919268279138576e-11
4158.818855513329,1.1951657518077399e-11,6.19306482499778e-12,2.329542385235436e-11
4255.690191011856,9.485594028959203e-12,4.881227367681103e-12,1.8575716111631094e-11
4354.817949780376,7.52111227756453e-12,3.8431554243417086e-12,1.480073248876699e-11
4456.254690668699,5.957602163762909e-12,3.022764870781986e-12,1.1783340660013078e-11
4560.05419677952,4.714409174036959e-12,2.3752739496783213e-12,9.37318048499204e-12
4666.271503984925,3.726908701505724e-12,1.8649529697258865e-12,7.449478394957336e-12
4774.962930107149,2.943348233533396e-12,1.4633180093281617e-12,5.915261026525462e-12
4886.186104779022,2.322307727824822e-12,1.1476815743283727e-12,4.692696070799153e-12
4999.999999999967,1.830657630378775e-12,8.999901825759825e-13,3.719341194082467e-12
5116.464961403737,1.4419174510439574e-12,7.058925534062235e-13,2.94512447535407e-12
5235.642740254463,1.1349367104966715e-12,5.539931129076449e-13,2.3299141082246355e-12
5357.5965261879965,8.928352957736196e-13,4.3525440297682547e-13,1.8415627477878024e-12
5482.390980715889,7.021525257637821e-13,3.4251911615399925e-13,1.454334145531156e-12
5610.09227150978,5.521641091582243e-13,2.7012819807115345e-13,1.1476376540129611e-12
5740.768107484376,4.343341384704823e-13,2.1361602949409598e-13,9.050106387781196e-13
5874.487774697609,3.418756771070717e-13,1.6946733917021936e-13,7.133004852511628e-13
6011.322173087025,2.693986607394923e-13,1.34923397684813e-13,5.620072783394629e-13
