Frequency,Nominal,Min,Max
50,2.6336243228029753e-7,2.504069516887301e-7,2.7698887508743555e-7
51.16464961403771,2.6811566740867566e-7,2.547043147738475e-7,2.822271534788135e-7
52.35642740254497,2.7304783865857004e-7,2.5916254066256103e-7,2.876645718138229e-7
53.57596526188031,2.781662810908463e-7,2.6378788086366957e-7,2.933097751976679e-7
54.82390980715924,2.834787869367588e-7,2.6858694282923776e-7,2.99171994123669e-7
56.10092271509816,2.8899365013173665e-7,2.7356672321338783e-7,3.052611038519666e-7
57.40768107484412,2.947197160141363e-7,2.7873464486550406e-7,3.1158769091214303e-7
58.74487774697646,3.0066643685965506e-7,2.840985980211011e-7,3.181631276909258e-7
60.11322173087062,3.068439340205132e-7,2.896669862198506e-7,3.249996562097202e-7
61.51343854061905,3.1326306755234907e-7,2.95448777556883e-7,3.3211048236256856e-7
62.94627058970833,3.1993551434340693e-7,3.014535619621075e-7,3.395098820764981e-7
64.41247758465666,3.268738559127474e-7,3.0769161530482027e-7,3.4721332107661934e-7
65.91283692782031,3.3409167721988286e-7,3.141739712394609e-7,3.5523759019154887e-7
67.44814412958263,3.416036780308288e-7,3.2091250184550013e-7,3.6360095842466874e-7
69.01921323014419,3.4942579861863774e-7,3.279200082728581e-7,3.723233463471264e-7
70.62687723113766,3.575753618439392e-7,3.352103227871037e-7,3.8142652274258757e-7
72.27198853729631,3.660712339666185e-7,3.427984238193663e-7,3.909343278536929e-7
73.95541940841031,3.749340068871852e-7,3.507005658680642e-7,4.008729270458899e-7
75.67806242181034,3.8418620490833785e-7,3.589344263770748e-7,4.112710992121792e-7
77.440830945624,3.9385251954511803e-7,3.675192720315443e-7,4.221605647827432e-7
79.2446596230556,4.0396007639440743e-7,3.764761472715442e-7,4.335763587574935e-7
81.09050486794642,4.145387385955139e-7,3.858280882276016e-7,4.455572547139034e-7
82.97934537187795,4.256214519600587e-7,3.956003657312892e-7,4.5814624620172497e-7
84.91218262308713,4.3724463739697465e-7,4.0582076154593595e-7,4.713910922319257e-7
86.89004143746868,4.4944863676535623e-7,4.165198824891594e-7,4.853449335618326e-7
88.91397050194604,4.622782186863214e-7,4.277315176641246e-7,5.000669859620187e-7
90.98504293049906,4.757831510277775e-7,4.394930445509466e-7,5.156233153067504e-7
93.10435683314326,4.900188465778274e-7,4.518458901845388e-7,5.32087696689165e-7
95.27303589816223,5.050470875929567e-7,4.6483605398166185e-7,5.495425551344004e-7
97.49222998790214,5.209368330711832e-7,4.785146988548015e-7,5.68079977865819e-7
99.76311574844384,5.377651092036505e-7,4.929388168749394e-7,5.878027760318351e-7
102.08689723347632,5.556179776900792e-7,5.081719746343872e-7,6.088255552882882e-7
104.46480654270182,5.745915672924167e-7,5.242851411899361e-7,6.31275726828144e-7
106.89810447511145,5.94793139475702e-7,5.413575974102774e-7,6.55294349532224e-7
109.38808119747746,6.163421369001746e-7,5.5947791879879e-7,6.810366348900116e-7
111.9360569284168,6.393711306609943e-7,5.787450131022636e-7,7.086718630507811e-7
114.54338263838847,6.640265342217633e-7,5.992691773869759e-7,7.383823439263744e-7
117.21144076599592,6.904688834636831e-7,6.211731141710329e-7,7.703609054436252e-7
119.94164595097432,7.188723866402288e-7,6.445928091117058e-7,8.048061994681839e-7
122.73544578425131,7.494233184818271e-7,6.69678119002779e-7,8.419148925644734e-7
125.59432157547879,7.823166642000779e-7,6.965928426101513e-7,8.818695836559337e-7
128.51978913844297,8.17750212850831e-7,7.25513941464688e-7,9.248211349461273e-7
131.51339959476888,8.559150712524197e-7,7.56629436665639e-7,9.708641550744103e-7
134.57674019634555,8.969813645657707e-7,7.901343274439342e-7,0.0000010200048694328287
137.71143516690807,9.410778046586896e-7,8.262236625199936e-7,0.0000010721218918563139
140.91914656322243,9.882640198027456e-7,8.650816696190242e-7,0.0000011269228608220924
144.20157515633002,0.000001038495330217419,9.068656709802477e-7,0.0000011851400183137183
147.560461333319,0.0000010915813953201213,9.516835028552396e-7,0.0000012483767605673454
150.99758602010053,0.0000011471432009813067,9.995635234329646e-7,0.000001313585486037282
154.51477162567923,0.0000012045772330825118,0.000001050417349952067,0.000001384027275714297
158.11388300841867,0.0000012630405985958533,0.0000011019928042316704,0.0000014594885398125598
161.7968284648138,0.0000013214741162312848,0.000001153401739933697,0.0000015354162767346894
165.56556074129523,0.0000013786784269834528,0.0000011981191002735362,0.0000016101270310712325
169.42207806960096,0.0000014334475081312525,0.0000012388753302488665,0.000001681903287219587
173.3684252262655,0.0000014847445769591785,0.0000012766568414828598,0.0000017492674531085711
177.40669461678738,0.0000015318838410831588,0.000001311078086705404,0.000001811267096204329
181.5390273850503,0.0000015746700612162097,0.0000013421016909543084,0.000001867689411439232
185.7676145485859,0.000001613456541539643,0.0000013700593259476039,0.000001919140468986093
190.09469816028022,0.0000016491096578293734,0.0000013956152100268852,0.000001966975876625865
194.5225724971399,0.0000016829003971349657,0.0000014177900830508096,0.0000020152271783503857
199.0535852767482,0.000001716363876556617,0.0000014325764308319057,0.0000020769256380935637
203.69013890205593,0.0000017511689579001563,0.0000014500096004735998,0.000002139430632208421
208.43469173516726,0.0000017890266901213332,0.000001471026247247262,0.0000022052687084586085
213.28975940079587,0.0000018316489406673313,0.00000149647972937516,0.0000022850459736422885
218.2579161200825,0.0000018807555213031099,0.0000015271812419146247,0.000002373292644815903
223.34179607548106,0.00000193812223931268,0.00000156394876727058,0.0000024728978021960987
228.544094807437,0.000002005662426551089,0.000001607661451685211,0.000002587778135187309
233.86757064359855,0.000002085538077279071,0.000001659319761678329,0.0000027224794554822047
239.3150461613186,0.000002180301624350945,0.0000017201140043310777,0.000002882419659278263
244.8894096842225,0.0000022930743120949555,0.0000017915057334770052,0.0000030742171280337877
250.59361681363552,0.000002427771234035338,0.0000018753284819747752,0.0000033060914853382447
256.4306919956818,0.000002589385071638923,0.0000019739163617464476,0.0000035882876194916278
262.40373012488567,0.0000027843369898302778,0.000002090271362531789,0.0000039333758685668374
268.5158981851257,0.000003020885320626881,0.000002228282182550421,0.000004356049611591302
274.7704369288116,0.0000033095299619407317,0.0000023930075008264533,0.000004871561864558268
281.17066259517384,0.0000036632176555629433,0.000002591030316877091,0.000005491151260319003
287.71996866857774,0.00000409685392279727,0.0000028308663913849316,0.0000062122030062908945
294.4218276777937,0.000004625044058417798,0.000003123343595100344,0.00000700292801483353
301.2797930371781,0.000005256159447536419,0.0000034817061992453005,0.000007790967526430621
308.2975009307403,0.000005980744391402502,0.000003920841455366862,0.000008685280643647236
315.4786722400958,0.00000675640770746834,0.000004454370021512098,0.00000959008320283982
322.82711451732695,0.000007503724244246865,0.000005087570745234768,0.000010931564330538187
330.3467240037972,0.000008136592561293193,0.000005335963008913984,0.000012296955553050604
338.04148769599004,0.000008620599544248166,0.000005285654806653275,0.00001351415997459583
345.9154854594674,0.00000900315990363234,0.000005272403251662468,0.00001530561249562863
353.97289219206806,0.000009386724468034713,0.000005325984759980418,0.00001761352945881015
362.2179800374941,0.00000988835146593394,0.000005467260407924167,0.000020429842569093774
370.6551206504578,0.000010627285521983115,0.000005716083248090308,0.00002386689789096233
379.28878751459087,0.00001174166814991909,0.000006098321357554808,0.000028451249702164598
388.1235583143448,0.000013423290351734965,0.000006653303971586472,0.00003462147227123086
397.1641173621396,0.000015961579471857083,0.00000744413208702047,0.00004161347521879311
406.41525808204847,0.00001975302022894983,0.000008574307169900568,0.00004617198034315151
415.88188555133434,0.00002503833863248166,0.000010214739182030925,0.000054460098195808354
425.56901910118705,0.000030838654825428383,0.000012638389573729357,0.00006923324680696878
435.4817949780391,0.000034652005242630047,0.00001255136939687796,0.00009682799274142539
445.6254690668715,0.00003680304752606116,0.000011986912921772798,0.00016616219272294844
456.00541967795357,0.00004177467930742852,0.000012257006807074594,0.00019342950255185902
466.62715039849417,0.00005762673710908754,0.00001352692051568544,0.00016326253246782884
477.49629301071656,0.00008437571112654992,0.000016358137947303325,0.00014374365136644586
488.61861047790387,0.00004407406395475809,0.000012277342282998593,0.0000966526108057373
499.99999999999847,0.00002291943103580374,0.000009148218022774648,0.00008780633930283436
511.64649614037546,0.000014576494834326518,0.000007235829202439055,0.00007944135159620335
523.5642740254481,0.000010432565984135143,0.00000596299628226479,0.00003839493166708088
535.7596526188015,0.000008034245497456793,0.000005061738151732782,0.000020864935984334708
548.2390980715908,0.000006498184554177013,0.000004392933981519713,0.000013630437573263356
561.0092271509799,0.000005441170039382389,0.000003878090316676201,0.000009916709218343485
574.0768107484395,0.000004673849889789755,0.0000034699597176709637,0.00000772002619846613
587.4487774697628,0.000004093348133105695,0.0000031385860328511204,0.000006291269747413585
601.1322173087044,0.0000036395698173645693,0.0000028641468433605625,0.000005296764221087062
615.1343854061887,0.0000032753349713769344,0.000002633046907158058,0.000004568425721395144
629.4627058970815,0.00000297653853493016,0.000002435673409088321,0.00000401357053403498
644.1247758465648,0.000002726931612265709,0.0000022650488343023533,0.0000035774128749836866
659.1283692782014,0.0000025151942167633324,0.000002115991836269985,0.0000032257263507163417
674.4814412958245,0.000002333214464520406,0.0000019845773445391284,0.0000029361394079559873
690.1921323014401,0.000002175035710878228,0.0000018677791947040329,0.00000269346706660898
706.2687723113747,0.0000020361897063755327,0.0000017632275535136073,0.0000024870675922952702
722.7198853729612,0.0000019132612866024496,0.000001669040533318783,0.000002309275906144148
739.5541940841011,0.0000018035965289096855,0.000001583704933008951,0.0000021544382501421043
756.7806242181015,0.0000017051024013218335,0.0000015059902284278672,0.0000020182969463080137
774.4083094562379,0.0000016161062738203983,0.000001434885515848702,0.0000018975865387388695
792.446596230554,0.0000015352555086662453,0.0000013695525878196988,0.0000017897616930478877
810.9050486794621,0.0000014614444475035118,0.0000013092905348942392,0.0000016928095676967704
829.7934537187773,0.0000013937604821115616,0.0000012535087066509105,0.0000016051177195639443
849.121826230869,0.000001331443648187603,0.0000012017058195935125,0.0000015253793523174278
868.9004143746845,0.0000012738559533188067,0.000001153453642897127,0.0000014525241919407962
889.139705019458,0.0000012204578134425436,0.0000011083841337698585,0.0000013856672774829783
909.8504293049882,0.00000117078974959159,0.000001066179200717021,0.0000013240704886263623
931.0435683314302,0.0000011244580251601022,0.0000010265624890827856,0.000001267113269140986
952.7303589816199,0.0000010811232686559671,9.892927375418896e-7,0.0000012142700843122715
974.9222998790189,0.000001040491382258303,9.541583657111773e-7,0.0000011650928742072133
997.6311574844359,0.000001002306217661039,9.209730345225127e-7,0.0000011191972581555335
1020.8689723347607,9.663436308073044e-7,8.8957198115487e-7,0.0000010762515874632745
1044.6480654270156,9.324066216676783e-7,8.598089751778514e-7,0.0000010359681832290532
1068.9810447511118,9.003213346594779e-7,8.315537763128631e-7,9.98096266738634e-7
1093.8808119747719,8.699337468283287e-7,8.046899998397477e-7,9.62416212750187e-7
1119.3605692841652,8.411069095062371e-7,7.791133152845922e-7,9.287348454370803e-7
1145.4338263838818,8.137186383270953e-7,7.547299191463651e-7,8.968815625962607e-7
1172.1144076599562,7.876595687095982e-7,7.314552341676048e-7,8.667051226774469e-7
1199.4164595097402,7.628315109943146e-7,7.092127968437904e-7,8.380709659189957e-7
1227.35445784251,7.391460526391003e-7,6.879333021015566e-7,8.108589686837115e-7
1255.943215754785,7.165233651803471e-7,6.675537798084804e-7,7.849615513155766e-7
1285.1978913844266,6.94891181753405e-7,6.480168823459169e-7,7.602820761708735e-7
1315.1339959476854,6.74183917351826e-7,6.29270266138041e-7,7.3673348513693e-7
1345.7674019634521,6.543419090796951e-7,6.112660529807083e-7,7.142371358336972e-7
1377.1143516690772,6.353107577070462e-7,5.939603594033229e-7,6.927218034586299e-7
1409.1914656322208,6.170407550975158e-7,5.773128842416226e-7,6.721228213758802e-7
1442.0157515632966,5.994863847102831e-7,5.612865461893754e-7,6.523813384358192e-7
1475.6046133331863,5.826058845158415e-7,5.458471644029289e-7,6.334436749193174e-7
1509.9758602010013,5.66360863408833e-7,5.309631763096576e-7,6.152607621453034e-7
1545.1477162567883,5.507159636300665e-7,5.166053876634153e-7,5.977876533225054e-7
1581.1388300841825,5.356385628858712e-7,5.027467506317474e-7,5.80983095292284e-7
1617.968284648134,5.21098510824943e-7,4.893621663185787e-7,5.648091524963009e-7
1655.6556074129478,5.070678953393925e-7,4.764283086445066e-7,5.492308758862461e-7
1694.2207806960048,4.935208348285653e-7,4.639234669425385e-7,5.342160106324564e-7
1733.68425226265,4.804332931259366e-7,4.5182740499454643e-7,5.1973473743084e-7
1774.066946167869,4.6778291426067826e-7,4.4012123454456e-7,5.05759442990285e-7
1815.3902738504983,4.5554887462229855e-7,4.287873015888044e-7,4.922645159351977e-7
1857.676145485854,4.4371175043189335e-7,4.1780908396692037e-7,4.79226164903731e-7
1900.946981602797,4.3225339870754733e-7,4.0717109897045907e-7,4.666222560805621e-7
1945.2257249713937,4.211568501527727e-7,3.96858819848802e-7,4.544321677891949e-7
1990.5358527674766,4.1040621260261297e-7,3.8685860023346236e-7,4.4263666009505775e-7
2036.9013890205538,3.999865838379068e-7,3.77157605622889e-7,4.312177576473446e-7
2084.346917351667,3.8988397272895285e-7,3.6774375117442307e-7,4.201586442227797e-7
2132.8975940079526,3.800852277993664e-7,3.586056451404498e-7,4.0944356763515106e-7
2182.579161200819,3.7057797241254817e-7,3.4973253736413463e-7,3.9905775384604057e-7
2233.4179607548044,3.613505458796021e-7,3.4111427231821186e-7,3.8898732925934846e-7
2285.440948074364,3.5239194987101427e-7,3.3274124622955977e-7,3.7921925030873113e-7
2338.6757064359795,3.4369179958685263e-7,3.246043678840094e-7,3.6974123955615487e-7
2393.1504616131797,3.352402792032545e-7,3.1669502275106175e-7,3.6054172761400586e-7
2448.8940968422185,3.2702810116789414e-7,3.0900504010780103e-7,3.516098002848447e-7
2505.9361681363484,3.190464689650963e-7,3.015266628760734e-7,3.429351503837685e-7
2564.306919956811,3.112870430132515e-7,2.942525199175954e-7,3.3450803377001077e-7
2624.037301248849,3.0374190939402414e-7,2.871756005586031e-7,3.2631922916818875e-7
2685.1589818512493,2.9640355114519653e-7,2.802892311394523e-7,3.183600014065966e-7
2747.704369288108,2.8926482187749135e-7,2.7358705340562164e-7,3.106220677410928e-7
2811.70662595173,2.8231892150083524e-7,2.670630045752021e-7,3.0309756696921816e-7
2877.199686685769,2.755593738677327e-7,2.6071129893449927e-7,2.9577903107092625e-7
2944.2182767779286,2.6898000616106653e-7,2.54526410828065e-7,2.886593591402371e-7
3012.797930371772,2.6257492987105945e-7,2.485030589225565e-7,2.8173179339679096e-7
3082.9750093073935,2.563385232216051e-7,2.4263619163548034e-7,2.7498989708805945e-7
3154.7867224009483,2.502654149199276e-7,2.369209736302884e-7,2.6842753411226657e-7
3228.271145173259,2.443504691157908e-7,2.3135277328859664e-7,2.620388502091778e-7
3303.467240037961,2.385887714674061e-7,2.259271510786328e-7,2.5581825558110816e-7
3380.414876959889,2.3297561622095788e-7,2.2063984874648378e-7,2.49760408820023e-7
3459.154854594662,2.275064942194033e-7,2.1548677926342282e-7,2.4386020202864174e-7
3539.7289219206687,2.221770817640341e-7,2.1046401746862432e-7,2.381127470342134e-7
3622.1798003749286,2.1698323025930976e-7,2.055677913519925e-7,2.3251336260322526e-7
3706.5512065045655,2.1192095657778485e-7,2.007944739267285e-7,2.2705756257391434e-7
3792.887875145896,2.069864340876261e-7,1.961405756456612e-7,2.2174104483114176e-7
3881.235583143435,2.0217598429032617e-7,1.916027373193584e-7,2.1655968105511025e-7
3971.641173621383,1.9748606902083353e-7,1.871777234976309e-7,2.1150950718161268e-7
4064.152580820471,1.9291328316647387e-7,1.8286241627930952e-7,2.065867145170876e-7
4158.818855513329,1.8845434786480274e-7,1.7865380951812434e-7,2.017876414567897e-7
4255.690191011856,1.8410610414392998e-7,1.7454900339520304e-7,1.971087657589242e-7
4354.817949780376,1.7986550697193856e-7,1.7054519933113393e-7,1.9254669733169127e-7
4456.254690668699,1.7572961968481525e-7,1.666396952127582e-7,1.8809817149389277e-7
4560.05419677952,1.7169560876484818e-7,1.6282988091186596e-7,1.8376004267310597e-7
4666.271503984925,1.6776073894374954e-7,1.5911323407480728e-7,1.7952927850846765e-7
4774.962930107149,1.639223686068585e-7,1.5548731616370108e-7,1.7540295432786482e-7
4886.186104779022,1.601779454766893e-7,1.5194976873144849e-7,1.713782479718328e-7
4999.999999999967,1.5652500255582592e-7,1.4849830991415421e-7,1.6745243493873043e-7
5116.464961403737,1.5296115431075187e-7,1.4513073112582964e-7,1.6362288382783334e-7
5235.642740254463,1.4948409307965097e-7,1.418448939414158e-7,1.5988705205886539e-7
5357.5965261879965,1.4609158568853827e-7,1.3863872715523387e-7,1.5624248184820829e-7
5482.390980715889,1.4278147026128745e-7,1.3551022400294245e-7,1.526867964235879e-7
5610.09227150978,1.3955165321022952e-7,1.3245743953598176e-7,1.4921769646047153e-7
5740.768107484376,1.3640010639500954e-7,1.2947848813830093e-7,1.4583295672471e-7
5874.487774697609,1.333248644383174e-7,1.265715411759219e-7,1.425304229071558e-7
6011.322173087025,1.3032402218795955e-7,1.2373482477058657e-7,1.3930800863707825e-7
